# Temperatura_=_21.67222222222222
# Concentracion g/m^3_=_10000.0
# C_Vs_to_Am_M_A/Vsm_=_254322799225.57578
# pendiente_HvsI_1/m_=_3716.3
# ordenada_HvsI_A/m_=_1297.0
# frecuencia_Hz_=_135574.8121218803
# Promedio de 36 ciclos

Tiempo_(s)	Campo_(V.s)	Magnetizacion_(V.s)	Campo_(kA/m)	Magnetizacion_(A/m)
0.000000e+00	-1.084676e-08	-4.270773e-09	-5.700546e+01	-1.338367e+03
1.000000e-08	-1.084690e-08	-4.271522e-09	-5.700621e+01	-1.338551e+03
2.000000e-08	-1.084637e-08	-4.272379e-09	-5.700336e+01	-1.338795e+03
3.000000e-08	-1.084487e-08	-4.272984e-09	-5.699536e+01	-1.338982e+03
4.000000e-08	-1.084234e-08	-4.272492e-09	-5.698198e+01	-1.338868e+03
5.000000e-08	-1.083900e-08	-4.271795e-09	-5.696441e+01	-1.338681e+03
6.000000e-08	-1.083510e-08	-4.272076e-09	-5.694388e+01	-1.338729e+03
7.000000e-08	-1.083062e-08	-4.272025e-09	-5.692023e+01	-1.338704e+03
8.000000e-08	-1.082542e-08	-4.271676e-09	-5.689283e+01	-1.338604e+03
9.000000e-08	-1.081940e-08	-4.273341e-09	-5.686114e+01	-1.338891e+03
1.000000e-07	-1.081238e-08	-4.274449e-09	-5.682416e+01	-1.338851e+03
1.100000e-07	-1.080409e-08	-4.265140e-09	-5.678038e+01	-1.336437e+03
1.200000e-07	-1.079430e-08	-4.254177e-09	-5.672881e+01	-1.334100e+03
1.300000e-07	-1.078345e-08	-4.260824e-09	-5.667180e+01	-1.336172e+03
1.400000e-07	-1.077230e-08	-4.284608e-09	-5.661330e+01	-1.341735e+03
1.500000e-07	-1.076087e-08	-4.290577e-09	-5.655326e+01	-1.342377e+03
1.600000e-07	-1.074856e-08	-4.253001e-09	-5.648842e+01	-1.333159e+03
1.700000e-07	-1.073528e-08	-4.238597e-09	-5.641860e+01	-1.329994e+03
1.800000e-07	-1.072145e-08	-4.283242e-09	-5.634595e+01	-1.340179e+03
1.900000e-07	-1.070673e-08	-4.285662e-09	-5.626847e+01	-1.340221e+03
2.000000e-07	-1.069064e-08	-4.230063e-09	-5.618386e+01	-1.327371e+03
2.100000e-07	-1.067374e-08	-4.235370e-09	-5.609507e+01	-1.328724e+03
2.200000e-07	-1.065647e-08	-4.279506e-09	-5.600434e+01	-1.338682e+03
2.300000e-07	-1.063848e-08	-4.253641e-09	-5.590969e+01	-1.332774e+03
2.400000e-07	-1.061962e-08	-4.230952e-09	-5.581048e+01	-1.327975e+03
2.500000e-07	-1.060021e-08	-4.279372e-09	-5.570846e+01	-1.339118e+03
2.600000e-07	-1.058022e-08	-4.281816e-09	-5.560338e+01	-1.339320e+03
2.700000e-07	-1.055942e-08	-4.230989e-09	-5.549399e+01	-1.327605e+03
2.800000e-07	-1.053793e-08	-4.248480e-09	-5.538101e+01	-1.331526e+03
2.900000e-07	-1.051577e-08	-4.272648e-09	-5.526444e+01	-1.336640e+03
3.000000e-07	-1.049277e-08	-4.225202e-09	-5.514340e+01	-1.325718e+03
3.100000e-07	-1.046911e-08	-4.221866e-09	-5.501907e+01	-1.325228e+03
3.200000e-07	-1.044493e-08	-4.266062e-09	-5.489194e+01	-1.335283e+03
3.300000e-07	-1.041985e-08	-4.240875e-09	-5.476000e+01	-1.329431e+03
3.400000e-07	-1.039366e-08	-4.217584e-09	-5.462228e+01	-1.324364e+03
3.500000e-07	-1.036664e-08	-4.264448e-09	-5.448026e+01	-1.335058e+03
3.600000e-07	-1.033901e-08	-4.261719e-09	-5.433500e+01	-1.334053e+03
3.700000e-07	-1.031076e-08	-4.219768e-09	-5.418654e+01	-1.324452e+03
3.800000e-07	-1.028186e-08	-4.246615e-09	-5.403463e+01	-1.330488e+03
3.900000e-07	-1.025220e-08	-4.253785e-09	-5.387868e+01	-1.331579e+03
4.000000e-07	-1.022177e-08	-4.209193e-09	-5.371864e+01	-1.321156e+03
4.100000e-07	-1.019066e-08	-4.222409e-09	-5.355503e+01	-1.323948e+03
4.200000e-07	-1.015895e-08	-4.235634e-09	-5.338824e+01	-1.326379e+03
4.300000e-07	-1.012660e-08	-4.201457e-09	-5.321815e+01	-1.318376e+03
4.400000e-07	-1.009342e-08	-4.210167e-09	-5.304369e+01	-1.320279e+03
4.500000e-07	-1.005923e-08	-4.224771e-09	-5.286390e+01	-1.323099e+03
4.600000e-07	-1.002415e-08	-4.197772e-09	-5.267952e+01	-1.316643e+03
4.700000e-07	-9.988443e-09	-4.197205e-09	-5.249177e+01	-1.316301e+03
4.800000e-07	-9.952143e-09	-4.206448e-09	-5.230086e+01	-1.317825e+03
4.900000e-07	-9.915200e-09	-4.188629e-09	-5.210659e+01	-1.313497e+03
5.000000e-07	-9.877559e-09	-4.188742e-09	-5.190868e+01	-1.313370e+03
5.100000e-07	-9.839171e-09	-4.191890e-09	-5.170683e+01	-1.313386e+03
5.200000e-07	-9.800111e-09	-4.172527e-09	-5.150146e+01	-1.308480e+03
5.300000e-07	-9.760498e-09	-4.169927e-09	-5.129320e+01	-1.307786e+03
5.400000e-07	-9.720274e-09	-4.175142e-09	-5.108172e+01	-1.308435e+03
5.500000e-07	-9.679209e-09	-4.161427e-09	-5.086588e+01	-1.304718e+03
5.600000e-07	-9.637170e-09	-4.156893e-09	-5.064494e+01	-1.303495e+03
5.700000e-07	-9.594247e-09	-4.160983e-09	-5.041932e+01	-1.304014e+03
5.800000e-07	-9.550594e-09	-4.150928e-09	-5.018985e+01	-1.301112e+03
5.900000e-07	-9.506327e-09	-4.142028e-09	-4.995718e+01	-1.298725e+03
6.000000e-07	-9.461489e-09	-4.139531e-09	-4.972152e+01	-1.297725e+03
6.100000e-07	-9.416043e-09	-4.130747e-09	-4.948261e+01	-1.295064e+03
6.200000e-07	-9.369927e-09	-4.123260e-09	-4.924014e+01	-1.292800e+03
6.300000e-07	-9.323155e-09	-4.120409e-09	-4.899422e+01	-1.291711e+03
6.400000e-07	-9.275760e-09	-4.115680e-09	-4.874502e+01	-1.290195e+03
6.500000e-07	-9.227685e-09	-4.111437e-09	-4.849232e+01	-1.288778e+03
6.600000e-07	-9.178800e-09	-4.106129e-09	-4.823544e+01	-1.287055e+03
6.700000e-07	-9.129010e-09	-4.096935e-09	-4.797375e+01	-1.284401e+03
6.800000e-07	-9.078311e-09	-4.088744e-09	-4.770717e+01	-1.281942e+03
6.900000e-07	-9.026764e-09	-4.081527e-09	-4.743613e+01	-1.279648e+03
7.000000e-07	-8.974463e-09	-4.074074e-09	-4.716119e+01	-1.277359e+03
7.100000e-07	-8.921500e-09	-4.069637e-09	-4.688279e+01	-1.275804e+03
7.200000e-07	-8.867896e-09	-4.064170e-09	-4.660102e+01	-1.273943e+03
7.300000e-07	-8.813666e-09	-4.055197e-09	-4.631598e+01	-1.271317e+03
7.400000e-07	-8.758891e-09	-4.048351e-09	-4.602806e+01	-1.269246e+03
7.500000e-07	-8.703611e-09	-4.042256e-09	-4.573742e+01	-1.267219e+03
7.600000e-07	-8.647795e-09	-4.032506e-09	-4.544399e+01	-1.264259e+03
7.700000e-07	-8.591400e-09	-4.023412e-09	-4.514752e+01	-1.261509e+03
7.800000e-07	-8.534325e-09	-4.017176e-09	-4.484746e+01	-1.259436e+03
7.900000e-07	-8.476473e-09	-4.010223e-09	-4.454332e+01	-1.257186e+03
8.000000e-07	-8.417876e-09	-4.002450e-09	-4.423526e+01	-1.254788e+03
8.100000e-07	-8.358614e-09	-3.995105e-09	-4.392369e+01	-1.252462e+03
8.200000e-07	-8.298726e-09	-3.986499e-09	-4.360887e+01	-1.249773e+03
8.300000e-07	-8.238258e-09	-3.977052e-09	-4.329104e+01	-1.246893e+03
8.400000e-07	-8.177243e-09	-3.968631e-09	-4.297027e+01	-1.244244e+03
8.500000e-07	-8.115661e-09	-3.960684e-09	-4.264645e+01	-1.241674e+03
8.600000e-07	-8.053524e-09	-3.951705e-09	-4.231980e+01	-1.238863e+03
8.700000e-07	-7.990890e-09	-3.942422e-09	-4.199057e+01	-1.236001e+03
8.800000e-07	-7.927784e-09	-3.933565e-09	-4.165881e+01	-1.233252e+03
8.900000e-07	-7.864190e-09	-3.924376e-09	-4.132451e+01	-1.230417e+03
9.000000e-07	-7.800066e-09	-3.914675e-09	-4.098750e+01	-1.227424e+03
9.100000e-07	-7.735391e-09	-3.904962e-09	-4.064763e+01	-1.224362e+03
9.200000e-07	-7.670127e-09	-3.895100e-09	-4.030471e+01	-1.221238e+03
9.300000e-07	-7.604237e-09	-3.885050e-09	-3.995850e+01	-1.218096e+03
9.400000e-07	-7.537728e-09	-3.875195e-09	-3.960900e+01	-1.215015e+03
9.500000e-07	-7.470614e-09	-3.865028e-09	-3.925626e+01	-1.211848e+03
9.600000e-07	-7.402930e-09	-3.854214e-09	-3.890059e+01	-1.208521e+03
9.700000e-07	-7.334745e-09	-3.843448e-09	-3.854231e+01	-1.205205e+03
9.800000e-07	-7.266104e-09	-3.832879e-09	-3.818157e+01	-1.201904e+03
9.900000e-07	-7.196998e-09	-3.821986e-09	-3.781838e+01	-1.198477e+03
1.000000e-06	-7.127396e-09	-3.810903e-09	-3.745263e+01	-1.194981e+03
1.010000e-06	-7.057292e-09	-3.799854e-09	-3.708429e+01	-1.191490e+03
1.020000e-06	-6.986719e-09	-3.788768e-09	-3.671352e+01	-1.188006e+03
1.030000e-06	-6.915727e-09	-3.777430e-09	-3.634052e+01	-1.184484e+03
1.040000e-06	-6.844322e-09	-3.766000e-09	-3.596524e+01	-1.180942e+03
1.050000e-06	-6.772426e-09	-3.754312e-09	-3.558737e+01	-1.177320e+03
1.060000e-06	-6.699955e-09	-3.742185e-09	-3.520658e+01	-1.173539e+03
1.070000e-06	-6.626893e-09	-3.729950e-09	-3.482272e+01	-1.169691e+03
1.080000e-06	-6.553263e-09	-3.717737e-09	-3.443583e+01	-1.165840e+03
1.090000e-06	-6.479047e-09	-3.705574e-09	-3.404587e+01	-1.162010e+03
1.100000e-06	-6.404223e-09	-3.693410e-09	-3.365272e+01	-1.158185e+03
1.110000e-06	-6.328817e-09	-3.680786e-09	-3.325649e+01	-1.154244e+03
1.120000e-06	-6.252878e-09	-3.667485e-09	-3.285744e+01	-1.150122e+03
1.130000e-06	-6.176480e-09	-3.653944e-09	-3.245597e+01	-1.145909e+03
1.140000e-06	-6.099661e-09	-3.640580e-09	-3.205229e+01	-1.141726e+03
1.150000e-06	-6.022372e-09	-3.627292e-09	-3.164624e+01	-1.137551e+03
1.160000e-06	-5.944588e-09	-3.613774e-09	-3.123766e+01	-1.133289e+03
1.170000e-06	-5.866328e-09	-3.599708e-09	-3.082648e+01	-1.128870e+03
1.180000e-06	-5.787597e-09	-3.584992e-09	-3.041273e+01	-1.124271e+03
1.190000e-06	-5.708392e-09	-3.570187e-09	-2.999648e+01	-1.119641e+03
1.200000e-06	-5.628718e-09	-3.555899e-09	-2.957783e+01	-1.115157e+03
1.210000e-06	-5.548567e-09	-3.541616e-09	-2.915665e+01	-1.110674e+03
1.220000e-06	-5.467946e-09	-3.526699e-09	-2.873294e+01	-1.106000e+03
1.230000e-06	-5.386887e-09	-3.511052e-09	-2.830691e+01	-1.101106e+03
1.240000e-06	-5.305412e-09	-3.495131e-09	-2.787866e+01	-1.096111e+03
1.250000e-06	-5.223581e-09	-3.479242e-09	-2.744855e+01	-1.091106e+03
1.260000e-06	-5.141458e-09	-3.462943e-09	-2.701693e+01	-1.085999e+03
1.270000e-06	-5.059063e-09	-3.446366e-09	-2.658385e+01	-1.080792e+03
1.280000e-06	-4.976398e-09	-3.429755e-09	-2.614932e+01	-1.075566e+03
1.290000e-06	-4.893469e-09	-3.412939e-09	-2.571344e+01	-1.070330e+03
1.300000e-06	-4.810275e-09	-3.396241e-09	-2.527621e+01	-1.065137e+03
1.310000e-06	-4.726789e-09	-3.379913e-09	-2.483748e+01	-1.060003e+03
1.320000e-06	-4.643003e-09	-3.363062e-09	-2.439722e+01	-1.054695e+03
1.330000e-06	-4.558934e-09	-3.345237e-09	-2.395546e+01	-1.049102e+03
1.340000e-06	-4.474575e-09	-3.327021e-09	-2.351211e+01	-1.043374e+03
1.350000e-06	-4.389921e-09	-3.308552e-09	-2.306721e+01	-1.037566e+03
1.360000e-06	-4.304975e-09	-3.289633e-09	-2.262080e+01	-1.031657e+03
1.370000e-06	-4.219738e-09	-3.270467e-09	-2.217289e+01	-1.025682e+03
1.380000e-06	-4.134230e-09	-3.251096e-09	-2.172353e+01	-1.019627e+03
1.390000e-06	-4.048454e-09	-3.231361e-09	-2.127278e+01	-1.013471e+03
1.400000e-06	-3.962408e-09	-3.211634e-09	-2.082061e+01	-1.007289e+03
1.410000e-06	-3.876120e-09	-3.191988e-09	-2.036717e+01	-1.001089e+03
1.420000e-06	-3.789623e-09	-3.171880e-09	-1.991260e+01	-9.947750e+02
1.430000e-06	-3.702932e-09	-3.151373e-09	-1.945695e+01	-9.883654e+02
1.440000e-06	-3.616031e-09	-3.130534e-09	-1.900022e+01	-9.818596e+02
1.450000e-06	-3.528883e-09	-3.109210e-09	-1.854231e+01	-9.752190e+02
1.460000e-06	-3.441508e-09	-3.087737e-09	-1.808316e+01	-9.685029e+02
1.470000e-06	-3.353901e-09	-3.066396e-09	-1.762277e+01	-9.617823e+02
1.480000e-06	-3.266016e-09	-3.044656e-09	-1.716095e+01	-9.549465e+02
1.490000e-06	-3.177839e-09	-3.022327e-09	-1.669759e+01	-9.479545e+02
1.500000e-06	-3.089368e-09	-3.000277e-09	-1.623271e+01	-9.410348e+02
1.510000e-06	-3.000619e-09	-2.978216e-09	-1.576636e+01	-9.340959e+02
1.520000e-06	-2.911610e-09	-2.955409e-09	-1.529865e+01	-9.269345e+02
1.530000e-06	-2.822379e-09	-2.931849e-09	-1.482978e+01	-9.195465e+02
1.540000e-06	-2.732965e-09	-2.907593e-09	-1.435993e+01	-9.119628e+02
1.550000e-06	-2.643393e-09	-2.882725e-09	-1.388927e+01	-9.042015e+02
1.560000e-06	-2.553690e-09	-2.857589e-09	-1.341796e+01	-8.963309e+02
1.570000e-06	-2.463840e-09	-2.832272e-09	-1.294589e+01	-8.883759e+02
1.580000e-06	-2.373812e-09	-2.806273e-09	-1.247281e+01	-8.802138e+02
1.590000e-06	-2.283608e-09	-2.779869e-09	-1.199878e+01	-8.719348e+02
1.600000e-06	-2.193233e-09	-2.753842e-09	-1.152390e+01	-8.637473e+02
1.610000e-06	-2.102667e-09	-2.727845e-09	-1.104799e+01	-8.555471e+02
1.620000e-06	-2.011902e-09	-2.700649e-09	-1.057103e+01	-8.470023e+02
1.630000e-06	-1.920941e-09	-2.671646e-09	-1.009304e+01	-8.379470e+02
1.640000e-06	-1.829790e-09	-2.641656e-09	-9.614022e+00	-8.285902e+02
1.650000e-06	-1.738460e-09	-2.611447e-09	-9.134042e+00	-8.191350e+02
1.660000e-06	-1.646959e-09	-2.581236e-09	-8.653150e+00	-8.096495e+02
1.670000e-06	-1.555327e-09	-2.551099e-09	-8.171605e+00	-8.001543e+02
1.680000e-06	-1.463605e-09	-2.520809e-09	-7.689591e+00	-7.905941e+02
1.690000e-06	-1.371815e-09	-2.490150e-09	-7.207162e+00	-7.809497e+02
1.700000e-06	-1.279962e-09	-2.458725e-09	-6.724397e+00	-7.711251e+02
1.710000e-06	-1.188030e-09	-2.426374e-09	-6.241254e+00	-7.610342e+02
1.720000e-06	-1.096021e-09	-2.393387e-09	-5.757697e+00	-7.507335e+02
1.730000e-06	-1.003933e-09	-2.359883e-09	-5.273697e+00	-7.402521e+02
1.740000e-06	-9.117609e-10	-2.325984e-09	-4.789308e+00	-7.296152e+02
1.750000e-06	-8.195169e-10	-2.292101e-09	-4.304565e+00	-7.189424e+02
1.760000e-06	-7.272072e-10	-2.258001e-09	-3.819427e+00	-7.081856e+02
1.770000e-06	-6.348344e-10	-2.223114e-09	-3.333951e+00	-6.972073e+02
1.780000e-06	-5.424044e-10	-2.187529e-09	-2.848170e+00	-6.860282e+02
1.790000e-06	-4.499195e-10	-2.150926e-09	-2.362108e+00	-6.745461e+02
1.800000e-06	-3.573912e-10	-2.113188e-09	-1.875855e+00	-6.627076e+02
1.810000e-06	-2.648523e-10	-2.074882e-09	-1.389562e+00	-6.506599e+02
1.820000e-06	-1.723214e-10	-2.035870e-09	-9.032928e-01	-6.383600e+02
1.830000e-06	-7.980761e-11	-1.995941e-09	-4.170734e-01	-6.257651e+02
1.840000e-06	1.268439e-11	-1.955270e-09	6.907092e-02	-6.129447e+02
1.850000e-06	1.051608e-10	-1.914025e-09	5.551525e-01	-5.999419e+02
1.860000e-06	1.976322e-10	-1.871665e-09	1.041165e+00	-5.866042e+02
1.870000e-06	2.900911e-10	-1.827819e-09	1.527081e+00	-5.728108e+02
1.880000e-06	3.825235e-10	-1.782881e-09	2.012853e+00	-5.586716e+02
1.890000e-06	4.749422e-10	-1.737283e-09	2.498518e+00	-5.443260e+02
1.900000e-06	5.673532e-10	-1.691193e-09	2.984143e+00	-5.298072e+02
1.910000e-06	6.597417e-10	-1.644015e-09	3.469724e+00	-5.149332e+02
1.920000e-06	7.520946e-10	-1.595256e-09	3.955121e+00	-4.995683e+02
1.930000e-06	8.444007e-10	-1.545132e-09	4.440255e+00	-4.837558e+02
1.940000e-06	9.366589e-10	-1.493609e-09	4.925147e+00	-4.674716e+02
1.950000e-06	1.028847e-09	-1.440368e-09	5.409640e+00	-4.506213e+02
1.960000e-06	1.120952e-09	-1.385302e-09	5.893686e+00	-4.331798e+02
1.970000e-06	1.212966e-09	-1.328763e-09	6.377243e+00	-4.152796e+02
1.980000e-06	1.304858e-09	-1.270977e-09	6.860178e+00	-3.970228e+02
1.990000e-06	1.396622e-09	-1.211768e-09	7.342464e+00	-3.783356e+02
2.000000e-06	1.488268e-09	-1.150965e-09	7.824117e+00	-3.591359e+02
2.010000e-06	1.579792e-09	-1.087891e-09	8.305097e+00	-3.392073e+02
2.020000e-06	1.671186e-09	-1.022113e-09	8.785400e+00	-3.183986e+02
2.030000e-06	1.762461e-09	-9.536930e-10	9.265066e+00	-2.967391e+02
2.040000e-06	1.853602e-09	-8.828183e-10	9.744018e+00	-2.742949e+02
2.050000e-06	1.944603e-09	-8.095852e-10	1.022221e+01	-2.510962e+02
2.060000e-06	2.035443e-09	-7.338697e-10	1.069959e+01	-2.271145e+02
2.070000e-06	2.126113e-09	-6.555221e-10	1.117613e+01	-2.023061e+02
2.080000e-06	2.216619e-09	-5.744525e-10	1.165176e+01	-1.766484e+02
2.090000e-06	2.306932e-09	-4.908348e-10	1.212633e+01	-1.501715e+02
2.100000e-06	2.397046e-09	-4.049823e-10	1.259985e+01	-1.229475e+02
2.110000e-06	2.486960e-09	-3.166625e-10	1.307232e+01	-9.493196e+01
2.120000e-06	2.576664e-09	-2.257718e-10	1.354370e+01	-6.611045e+01
2.130000e-06	2.666161e-09	-1.324792e-10	1.401399e+01	-3.655346e+01
2.140000e-06	2.755466e-09	-3.699988e-11	1.448324e+01	-6.350226e+00
2.150000e-06	2.844581e-09	6.012855e-11	1.495149e+01	2.433033e+01
2.160000e-06	2.933505e-09	1.583109e-10	1.541875e+01	5.532176e+01
2.170000e-06	3.022227e-09	2.571600e-10	1.588491e+01	8.650737e+01
2.180000e-06	3.110730e-09	3.567347e-10	1.634987e+01	1.178948e+02
2.190000e-06	3.198997e-09	4.565719e-10	1.681359e+01	1.493734e+02
2.200000e-06	3.287003e-09	5.560948e-10	1.727604e+01	1.807640e+02
2.210000e-06	3.374749e-09	6.551231e-10	1.773717e+01	2.119752e+02
2.220000e-06	3.462225e-09	7.532901e-10	1.819690e+01	2.428733e+02
2.230000e-06	3.549423e-09	8.503363e-10	1.865523e+01	2.733627e+02
2.240000e-06	3.636363e-09	9.460856e-10	1.911219e+01	3.034098e+02
2.250000e-06	3.723055e-09	1.040108e-09	1.956781e+01	3.329215e+02
2.260000e-06	3.809484e-09	1.132228e-09	2.002205e+01	3.618304e+02
2.270000e-06	3.895644e-09	1.222595e-09	2.047489e+01	3.901538e+02
2.280000e-06	3.981550e-09	1.311074e-09	2.092634e+01	4.178610e+02
2.290000e-06	4.067211e-09	1.397197e-09	2.137646e+01	4.448314e+02
2.300000e-06	4.152636e-09	1.480678e-09	2.182536e+01	4.709830e+02
2.310000e-06	4.237816e-09	1.561630e-09	2.227297e+01	4.963363e+02
2.320000e-06	4.322748e-09	1.640180e-09	2.271931e+01	5.209006e+02
2.330000e-06	4.407438e-09	1.716795e-09	2.316439e+01	5.448018e+02
2.340000e-06	4.491868e-09	1.791706e-09	2.360812e+01	5.681412e+02
2.350000e-06	4.576010e-09	1.864157e-09	2.405039e+01	5.907398e+02
2.360000e-06	4.659841e-09	1.934034e-09	2.449103e+01	6.125744e+02
2.370000e-06	4.743331e-09	2.001859e-09	2.492982e+01	6.337678e+02
2.380000e-06	4.826475e-09	2.067240e-09	2.536677e+01	6.541718e+02
2.390000e-06	4.909291e-09	2.130120e-09	2.580200e+01	6.737739e+02
2.400000e-06	4.991789e-09	2.191161e-09	2.623555e+01	6.927917e+02
2.410000e-06	5.073979e-09	2.250594e-09	2.666750e+01	7.112970e+02
2.420000e-06	5.155846e-09	2.308647e-09	2.709778e+01	7.293639e+02
2.430000e-06	5.237380e-09	2.365499e-09	2.752631e+01	7.470559e+02
2.440000e-06	5.318552e-09	2.420897e-09	2.795291e+01	7.642760e+02
2.450000e-06	5.399335e-09	2.474173e-09	2.837744e+01	7.808461e+02
2.460000e-06	5.479731e-09	2.525096e-09	2.879992e+01	7.967144e+02
2.470000e-06	5.559724e-09	2.573933e-09	2.922027e+01	8.119303e+02
2.480000e-06	5.639303e-09	2.621094e-09	2.963848e+01	8.266121e+02
2.490000e-06	5.718456e-09	2.667286e-09	3.005444e+01	8.409669e+02
2.500000e-06	5.797147e-09	2.712732e-09	3.046797e+01	8.550535e+02
2.510000e-06	5.875347e-09	2.756778e-09	3.087892e+01	8.687160e+02
2.520000e-06	5.953055e-09	2.798975e-09	3.128726e+01	8.818492e+02
2.530000e-06	6.030292e-09	2.839903e-09	3.169311e+01	8.946106e+02
2.540000e-06	6.107087e-09	2.880087e-09	3.209664e+01	9.071228e+02
2.550000e-06	6.183456e-09	2.918900e-09	3.249796e+01	9.191930e+02
2.560000e-06	6.259369e-09	2.956103e-09	3.289689e+01	9.307621e+02
2.570000e-06	6.334773e-09	2.992188e-09	3.329313e+01	9.419790e+02
2.580000e-06	6.409645e-09	3.027382e-09	3.368649e+01	9.529131e+02
2.590000e-06	6.483967e-09	3.062340e-09	3.407694e+01	9.637310e+02
2.600000e-06	6.557741e-09	3.096676e-09	3.446455e+01	9.743386e+02
2.610000e-06	6.630971e-09	3.129049e-09	3.484924e+01	9.844069e+02
2.620000e-06	6.703635e-09	3.160235e-09	3.523095e+01	9.941543e+02
2.630000e-06	6.775744e-09	3.191351e-09	3.560979e+01	1.003864e+03
2.640000e-06	6.847317e-09	3.222354e-09	3.598586e+01	1.013483e+03
2.650000e-06	6.918394e-09	3.252826e-09	3.635937e+01	1.022894e+03
2.660000e-06	6.989011e-09	3.281909e-09	3.673048e+01	1.031895e+03
2.670000e-06	7.059160e-09	3.309219e-09	3.709904e+01	1.040386e+03
2.680000e-06	7.128811e-09	3.335357e-09	3.746491e+01	1.048524e+03
2.690000e-06	7.197967e-09	3.361239e-09	3.782823e+01	1.056547e+03
2.700000e-06	7.266666e-09	3.386832e-09	3.818921e+01	1.064448e+03
2.710000e-06	7.334931e-09	3.411600e-09	3.854793e+01	1.072112e+03
2.720000e-06	7.402746e-09	3.435438e-09	3.890429e+01	1.079528e+03
2.730000e-06	7.470060e-09	3.458530e-09	3.925796e+01	1.086729e+03
2.740000e-06	7.536813e-09	3.481294e-09	3.960868e+01	1.093800e+03
2.750000e-06	7.602958e-09	3.503706e-09	3.995623e+01	1.100727e+03
2.760000e-06	7.668464e-09	3.525293e-09	4.030041e+01	1.107400e+03
2.770000e-06	7.733319e-09	3.545867e-09	4.064114e+01	1.113791e+03
2.780000e-06	7.797548e-09	3.566017e-09	4.097857e+01	1.120062e+03
2.790000e-06	7.861195e-09	3.586421e-09	4.131292e+01	1.126374e+03
2.800000e-06	7.924310e-09	3.606595e-09	4.164453e+01	1.132601e+03
2.810000e-06	7.986929e-09	3.626038e-09	4.197360e+01	1.138631e+03
2.820000e-06	8.049063e-09	3.644752e-09	4.230008e+01	1.144445e+03
2.830000e-06	8.110678e-09	3.662980e-09	4.262381e+01	1.150096e+03
2.840000e-06	8.171778e-09	3.681025e-09	4.294487e+01	1.155679e+03
2.850000e-06	8.232396e-09	3.698873e-09	4.326342e+01	1.161183e+03
2.860000e-06	8.292536e-09	3.716137e-09	4.357944e+01	1.166508e+03
2.870000e-06	8.352156e-09	3.732765e-09	4.389273e+01	1.171658e+03
2.880000e-06	8.411197e-09	3.748944e-09	4.420299e+01	1.176667e+03
2.890000e-06	8.469565e-09	3.764914e-09	4.450966e+01	1.181602e+03
