# Temperatura_=_20.25428571428571
# Concentracion g/m^3_=_10000.0
# C_Vs_to_Am_M_A/Vsm_=_254322799225.57578
# pendiente_HvsI_1/m_=_3716.3
# ordenada_HvsI_A/m_=_1297.0
# frecuencia_Hz_=_135558.89944973693
# Promedio de 35 ciclos

Tiempo_(s)	Campo_(V.s)	Magnetizacion_(V.s)	Campo_(kA/m)	Magnetizacion_(A/m)
0.000000e+00	-1.088822e-08	-4.799664e-09	-5.701635e+01	-1.425024e+03
1.000000e-08	-1.088827e-08	-4.800753e-09	-5.701660e+01	-1.425324e+03
2.000000e-08	-1.088760e-08	-4.801637e-09	-5.701304e+01	-1.425568e+03
3.000000e-08	-1.088588e-08	-4.801834e-09	-5.700403e+01	-1.425624e+03
4.000000e-08	-1.088315e-08	-4.800898e-09	-5.698972e+01	-1.425352e+03
5.000000e-08	-1.087969e-08	-4.799599e-09	-5.697151e+01	-1.424971e+03
6.000000e-08	-1.087567e-08	-4.798805e-09	-5.695048e+01	-1.424757e+03
7.000000e-08	-1.087104e-08	-4.798075e-09	-5.692625e+01	-1.424557e+03
8.000000e-08	-1.086569e-08	-4.796855e-09	-5.689818e+01	-1.424192e+03
9.000000e-08	-1.085948e-08	-4.797410e-09	-5.686565e+01	-1.424312e+03
1.000000e-07	-1.085224e-08	-4.798935e-09	-5.682765e+01	-1.424721e+03
1.100000e-07	-1.084364e-08	-4.795472e-09	-5.678258e+01	-1.423623e+03
1.200000e-07	-1.083354e-08	-4.788949e-09	-5.672970e+01	-1.421653e+03
1.300000e-07	-1.082257e-08	-4.787026e-09	-5.667223e+01	-1.421239e+03
1.400000e-07	-1.081141e-08	-4.797002e-09	-5.661374e+01	-1.424312e+03
1.500000e-07	-1.079983e-08	-4.804141e-09	-5.655306e+01	-1.426310e+03
1.600000e-07	-1.078724e-08	-4.786967e-09	-5.648713e+01	-1.420965e+03
1.700000e-07	-1.077381e-08	-4.781306e-09	-5.641676e+01	-1.419047e+03
1.800000e-07	-1.075989e-08	-4.806515e-09	-5.634382e+01	-1.426716e+03
1.900000e-07	-1.074488e-08	-4.808630e-09	-5.626522e+01	-1.427546e+03
2.000000e-07	-1.072853e-08	-4.781379e-09	-5.617959e+01	-1.419245e+03
2.100000e-07	-1.071159e-08	-4.779063e-09	-5.609082e+01	-1.418849e+03
2.200000e-07	-1.069424e-08	-4.794329e-09	-5.599992e+01	-1.423858e+03
2.300000e-07	-1.067601e-08	-4.782658e-09	-5.590443e+01	-1.420014e+03
2.400000e-07	-1.065696e-08	-4.778778e-09	-5.580458e+01	-1.418342e+03
2.500000e-07	-1.063742e-08	-4.806517e-09	-5.570217e+01	-1.426820e+03
2.600000e-07	-1.061721e-08	-4.807898e-09	-5.559635e+01	-1.427264e+03
2.700000e-07	-1.059620e-08	-4.788453e-09	-5.548625e+01	-1.420967e+03
2.800000e-07	-1.057456e-08	-4.799556e-09	-5.537283e+01	-1.424601e+03
2.900000e-07	-1.055220e-08	-4.803566e-09	-5.525567e+01	-1.426429e+03
3.000000e-07	-1.052901e-08	-4.774684e-09	-5.513409e+01	-1.417549e+03
3.100000e-07	-1.050524e-08	-4.770615e-09	-5.500950e+01	-1.416437e+03
3.200000e-07	-1.048086e-08	-4.784821e-09	-5.488175e+01	-1.421343e+03
3.300000e-07	-1.045543e-08	-4.768845e-09	-5.474856e+01	-1.416202e+03
3.400000e-07	-1.042893e-08	-4.762746e-09	-5.460974e+01	-1.413764e+03
3.500000e-07	-1.040169e-08	-4.787145e-09	-5.446705e+01	-1.421440e+03
3.600000e-07	-1.037384e-08	-4.783388e-09	-5.432113e+01	-1.420243e+03
3.700000e-07	-1.034538e-08	-4.771182e-09	-5.417203e+01	-1.415846e+03
3.800000e-07	-1.031625e-08	-4.792411e-09	-5.401944e+01	-1.422535e+03
3.900000e-07	-1.028634e-08	-4.791517e-09	-5.386274e+01	-1.422570e+03
4.000000e-07	-1.025566e-08	-4.771270e-09	-5.370198e+01	-1.415810e+03
4.100000e-07	-1.022433e-08	-4.783384e-09	-5.353777e+01	-1.419666e+03
4.200000e-07	-1.019242e-08	-4.783770e-09	-5.337052e+01	-1.420211e+03
4.300000e-07	-1.015982e-08	-4.763893e-09	-5.319979e+01	-1.413621e+03
4.400000e-07	-1.012628e-08	-4.771496e-09	-5.302426e+01	-1.415987e+03
4.500000e-07	-1.009172e-08	-4.774641e-09	-5.284334e+01	-1.417457e+03
4.600000e-07	-1.005637e-08	-4.755321e-09	-5.265815e+01	-1.411293e+03
4.700000e-07	-1.002044e-08	-4.753760e-09	-5.246990e+01	-1.410729e+03
4.800000e-07	-9.983895e-09	-4.756820e-09	-5.227851e+01	-1.412011e+03
4.900000e-07	-9.946687e-09	-4.743837e-09	-5.208364e+01	-1.407939e+03
5.000000e-07	-9.908768e-09	-4.739962e-09	-5.188503e+01	-1.406671e+03
5.100000e-07	-9.870109e-09	-4.740899e-09	-5.168252e+01	-1.407171e+03
5.200000e-07	-9.830836e-09	-4.729851e-09	-5.147675e+01	-1.403823e+03
5.300000e-07	-9.791044e-09	-4.724220e-09	-5.126823e+01	-1.402094e+03
5.400000e-07	-9.750562e-09	-4.725229e-09	-5.105617e+01	-1.402493e+03
5.500000e-07	-9.709148e-09	-4.716092e-09	-5.083935e+01	-1.399727e+03
5.600000e-07	-9.666761e-09	-4.706327e-09	-5.061745e+01	-1.396823e+03
5.700000e-07	-9.623528e-09	-4.704277e-09	-5.039097e+01	-1.396260e+03
5.800000e-07	-9.579614e-09	-4.698991e-09	-5.016085e+01	-1.394632e+03
5.900000e-07	-9.535115e-09	-4.691020e-09	-4.992776e+01	-1.392270e+03
6.000000e-07	-9.490026e-09	-4.686768e-09	-4.969162e+01	-1.391045e+03
6.100000e-07	-9.444281e-09	-4.680777e-09	-4.945201e+01	-1.389234e+03
6.200000e-07	-9.397875e-09	-4.672193e-09	-4.920892e+01	-1.386692e+03
6.300000e-07	-9.350867e-09	-4.665883e-09	-4.896267e+01	-1.384839e+03
6.400000e-07	-9.303250e-09	-4.660258e-09	-4.871328e+01	-1.383127e+03
6.500000e-07	-9.254891e-09	-4.652964e-09	-4.846008e+01	-1.380971e+03
6.600000e-07	-9.205640e-09	-4.645809e-09	-4.820232e+01	-1.378883e+03
6.700000e-07	-9.155446e-09	-4.639350e-09	-4.793965e+01	-1.376935e+03
6.800000e-07	-9.104359e-09	-4.632735e-09	-4.767216e+01	-1.374949e+03
6.900000e-07	-9.052461e-09	-4.625104e-09	-4.740033e+01	-1.372717e+03
7.000000e-07	-8.999842e-09	-4.616753e-09	-4.712475e+01	-1.370248e+03
7.100000e-07	-8.946560e-09	-4.608713e-09	-4.684572e+01	-1.367881e+03
7.200000e-07	-8.892644e-09	-4.600820e-09	-4.656337e+01	-1.365560e+03
7.300000e-07	-8.838145e-09	-4.592727e-09	-4.627795e+01	-1.363145e+03
7.400000e-07	-8.783113e-09	-4.585463e-09	-4.598968e+01	-1.360979e+03
7.500000e-07	-8.727552e-09	-4.578124e-09	-4.569861e+01	-1.358817e+03
7.600000e-07	-8.671439e-09	-4.568967e-09	-4.540470e+01	-1.356093e+03
7.700000e-07	-8.614699e-09	-4.559679e-09	-4.510758e+01	-1.353311e+03
7.800000e-07	-8.557222e-09	-4.551495e-09	-4.480666e+01	-1.350893e+03
7.900000e-07	-8.498965e-09	-4.543057e-09	-4.450169e+01	-1.348406e+03
8.000000e-07	-8.439997e-09	-4.534165e-09	-4.419292e+01	-1.345771e+03
8.100000e-07	-8.380395e-09	-4.525381e-09	-4.388072e+01	-1.343179e+03
8.200000e-07	-8.320216e-09	-4.515998e-09	-4.356544e+01	-1.340387e+03
8.300000e-07	-8.259469e-09	-4.506106e-09	-4.324723e+01	-1.337434e+03
8.400000e-07	-8.198125e-09	-4.496410e-09	-4.292596e+01	-1.334578e+03
8.500000e-07	-8.136210e-09	-4.486637e-09	-4.260168e+01	-1.331713e+03
8.600000e-07	-8.073781e-09	-4.476431e-09	-4.227470e+01	-1.328693e+03
8.700000e-07	-8.010885e-09	-4.466784e-09	-4.194525e+01	-1.325819e+03
8.800000e-07	-7.947530e-09	-4.457828e-09	-4.161344e+01	-1.323154e+03
8.900000e-07	-7.883666e-09	-4.448284e-09	-4.127906e+01	-1.320319e+03
9.000000e-07	-7.819259e-09	-4.437886e-09	-4.094181e+01	-1.317245e+03
9.100000e-07	-7.754286e-09	-4.427351e-09	-4.060161e+01	-1.314136e+03
9.200000e-07	-7.688686e-09	-4.416800e-09	-4.025820e+01	-1.311000e+03
9.300000e-07	-7.622438e-09	-4.406244e-09	-3.991130e+01	-1.307863e+03
9.400000e-07	-7.555577e-09	-4.395767e-09	-3.956113e+01	-1.304774e+03
9.500000e-07	-7.488127e-09	-4.384861e-09	-3.920793e+01	-1.301565e+03
9.600000e-07	-7.420135e-09	-4.373012e-09	-3.885189e+01	-1.298068e+03
9.700000e-07	-7.351675e-09	-4.361207e-09	-3.849335e+01	-1.294557e+03
9.800000e-07	-7.282743e-09	-4.349675e-09	-3.813238e+01	-1.291127e+03
9.900000e-07	-7.213297e-09	-4.337836e-09	-3.776883e+01	-1.287616e+03
1.000000e-06	-7.143342e-09	-4.325925e-09	-3.740261e+01	-1.284098e+03
1.010000e-06	-7.072908e-09	-4.314060e-09	-3.703381e+01	-1.280597e+03
1.020000e-06	-7.002031e-09	-4.302004e-09	-3.666261e+01	-1.277031e+03
1.030000e-06	-6.930728e-09	-4.289654e-09	-3.628923e+01	-1.273372e+03
1.040000e-06	-6.858989e-09	-4.277011e-09	-3.591362e+01	-1.269636e+03
1.050000e-06	-6.786746e-09	-4.263809e-09	-3.553536e+01	-1.265734e+03
1.060000e-06	-6.713933e-09	-4.249966e-09	-3.515417e+01	-1.261631e+03
1.070000e-06	-6.640513e-09	-4.236141e-09	-3.476985e+01	-1.257522e+03
1.080000e-06	-6.566462e-09	-4.222742e-09	-3.438226e+01	-1.253549e+03
1.090000e-06	-6.491776e-09	-4.209467e-09	-3.399133e+01	-1.249628e+03
1.100000e-06	-6.416496e-09	-4.196074e-09	-3.359732e+01	-1.245678e+03
1.110000e-06	-6.340680e-09	-4.182185e-09	-3.320047e+01	-1.241576e+03
1.120000e-06	-6.264376e-09	-4.167621e-09	-3.280096e+01	-1.237255e+03
1.130000e-06	-6.187616e-09	-4.152576e-09	-3.239903e+01	-1.232781e+03
1.140000e-06	-6.110391e-09	-4.137298e-09	-3.199472e+01	-1.228247e+03
1.150000e-06	-6.032698e-09	-4.122089e-09	-3.158804e+01	-1.223745e+03
1.160000e-06	-5.954537e-09	-4.106888e-09	-3.117893e+01	-1.219249e+03
1.170000e-06	-5.875913e-09	-4.091235e-09	-3.076734e+01	-1.214616e+03
1.180000e-06	-5.796832e-09	-4.075476e-09	-3.035333e+01	-1.209944e+03
1.190000e-06	-5.717284e-09	-4.059685e-09	-2.993695e+01	-1.205273e+03
1.200000e-06	-5.637261e-09	-4.043500e-09	-2.951813e+01	-1.200493e+03
1.210000e-06	-5.556760e-09	-4.026961e-09	-2.909675e+01	-1.195596e+03
1.220000e-06	-5.475789e-09	-4.010091e-09	-2.867281e+01	-1.190583e+03
1.230000e-06	-5.394388e-09	-3.992750e-09	-2.824654e+01	-1.185426e+03
1.240000e-06	-5.312617e-09	-3.975092e-09	-2.781826e+01	-1.180172e+03
1.250000e-06	-5.230544e-09	-3.957287e-09	-2.738834e+01	-1.174891e+03
1.260000e-06	-5.148181e-09	-3.939150e-09	-2.695694e+01	-1.169537e+03
1.270000e-06	-5.065530e-09	-3.920584e-09	-2.652402e+01	-1.164059e+03
1.280000e-06	-4.982603e-09	-3.902093e-09	-2.608969e+01	-1.158582e+03
1.290000e-06	-4.899394e-09	-3.883837e-09	-2.565393e+01	-1.153152e+03
1.300000e-06	-4.815895e-09	-3.865275e-09	-2.521666e+01	-1.147628e+03
1.310000e-06	-4.732097e-09	-3.846300e-09	-2.477785e+01	-1.141997e+03
1.320000e-06	-4.648017e-09	-3.826872e-09	-2.433755e+01	-1.136238e+03
1.330000e-06	-4.563660e-09	-3.806641e-09	-2.389578e+01	-1.130238e+03
1.340000e-06	-4.479009e-09	-3.786160e-09	-2.345244e+01	-1.124168e+03
1.350000e-06	-4.394056e-09	-3.766055e-09	-2.300751e+01	-1.118212e+03
1.360000e-06	-4.308809e-09	-3.745905e-09	-2.256109e+01	-1.112238e+03
1.370000e-06	-4.223260e-09	-3.725493e-09	-2.211309e+01	-1.106186e+03
1.380000e-06	-4.137404e-09	-3.704765e-09	-2.166352e+01	-1.100039e+03
1.390000e-06	-4.051294e-09	-3.683493e-09	-2.121263e+01	-1.093723e+03
1.400000e-06	-3.964947e-09	-3.661732e-09	-2.076042e+01	-1.087264e+03
1.410000e-06	-3.878367e-09	-3.639948e-09	-2.030694e+01	-1.080812e+03
1.420000e-06	-3.791571e-09	-3.617898e-09	-1.985235e+01	-1.074281e+03
1.430000e-06	-3.704558e-09	-3.595030e-09	-1.939662e+01	-1.067503e+03
1.440000e-06	-3.617318e-09	-3.571650e-09	-1.893973e+01	-1.060573e+03
1.450000e-06	-3.529822e-09	-3.548589e-09	-1.848157e+01	-1.053729e+03
1.460000e-06	-3.442063e-09	-3.525808e-09	-1.802211e+01	-1.046959e+03
1.470000e-06	-3.354047e-09	-3.502407e-09	-1.756133e+01	-1.040009e+03
1.480000e-06	-3.265749e-09	-3.478156e-09	-1.709911e+01	-1.032818e+03
1.490000e-06	-3.177165e-09	-3.453133e-09	-1.663534e+01	-1.025401e+03
1.500000e-06	-3.088287e-09	-3.427703e-09	-1.617003e+01	-1.017859e+03
1.510000e-06	-2.999137e-09	-3.402615e-09	-1.570331e+01	-1.010413e+03
1.520000e-06	-2.909761e-09	-3.377326e-09	-1.523532e+01	-1.002897e+03
1.530000e-06	-2.820211e-09	-3.350851e-09	-1.476636e+01	-9.950369e+02
1.540000e-06	-2.730495e-09	-3.323724e-09	-1.429653e+01	-9.869839e+02
1.550000e-06	-2.640579e-09	-3.296750e-09	-1.382566e+01	-9.789622e+02
1.560000e-06	-2.550489e-09	-3.269457e-09	-1.335396e+01	-9.708547e+02
1.570000e-06	-2.460258e-09	-3.241308e-09	-1.288156e+01	-9.625050e+02
1.580000e-06	-2.369869e-09	-3.212463e-09	-1.240829e+01	-9.539489e+02
1.590000e-06	-2.279282e-09	-3.182795e-09	-1.193402e+01	-9.451453e+02
1.600000e-06	-2.188495e-09	-3.152501e-09	-1.145875e+01	-9.361595e+02
1.610000e-06	-2.097516e-09	-3.122211e-09	-1.098253e+01	-9.271684e+02
1.620000e-06	-2.006321e-09	-3.091882e-09	-1.050522e+01	-9.181532e+02
1.630000e-06	-1.914935e-09	-3.060994e-09	-1.002686e+01	-9.089764e+02
1.640000e-06	-1.823370e-09	-3.029426e-09	-9.547520e+00	-8.995963e+02
1.650000e-06	-1.731614e-09	-2.997503e-09	-9.067190e+00	-8.901053e+02
1.660000e-06	-1.639711e-09	-2.965226e-09	-8.586031e+00	-8.805150e+02
1.670000e-06	-1.547710e-09	-2.932154e-09	-8.104331e+00	-8.706941e+02
1.680000e-06	-1.455630e-09	-2.898169e-09	-7.622208e+00	-8.606176e+02
1.690000e-06	-1.363473e-09	-2.863756e-09	-7.139647e+00	-8.504153e+02
1.700000e-06	-1.271251e-09	-2.829372e-09	-6.656724e+00	-8.402021e+02
1.710000e-06	-1.178985e-09	-2.795044e-09	-6.173545e+00	-8.299862e+02
1.720000e-06	-1.086650e-09	-2.760346e-09	-5.690004e+00	-8.196506e+02
1.730000e-06	-9.942329e-10	-2.724634e-09	-5.206017e+00	-8.090260e+02
1.740000e-06	-9.017377e-10	-2.687718e-09	-4.721592e+00	-7.980588e+02
1.750000e-06	-8.091750e-10	-2.649902e-09	-4.236817e+00	-7.868238e+02
1.760000e-06	-7.165608e-10	-2.611802e-09	-3.751731e+00	-7.754925e+02
1.770000e-06	-6.238910e-10	-2.573293e-09	-3.266325e+00	-7.640270e+02
1.780000e-06	-5.311530e-10	-2.533545e-09	-2.780611e+00	-7.522016e+02
1.790000e-06	-4.383551e-10	-2.492279e-09	-2.294614e+00	-7.399447e+02
1.800000e-06	-3.455249e-10	-2.449898e-09	-1.808434e+00	-7.273395e+02
1.810000e-06	-2.526697e-10	-2.406987e-09	-1.322124e+00	-7.145469e+02
1.820000e-06	-1.598013e-10	-2.363707e-09	-8.357451e-01	-7.016475e+02
1.830000e-06	-6.697316e-11	-2.319785e-09	-3.495808e-01	-6.885830e+02
1.840000e-06	2.580387e-11	-2.274738e-09	1.363019e-01	-6.752097e+02
1.850000e-06	1.185650e-10	-2.228796e-09	6.221244e-01	-6.615610e+02
1.860000e-06	2.113131e-10	-2.182315e-09	1.107904e+00	-6.477137e+02
1.870000e-06	3.040476e-10	-2.134912e-09	1.593616e+00	-6.335694e+02
1.880000e-06	3.967820e-10	-2.086376e-09	2.079293e+00	-6.190931e+02
1.890000e-06	4.895147e-10	-2.036389e-09	2.564935e+00	-6.041960e+02
1.900000e-06	5.822238e-10	-1.984614e-09	3.050485e+00	-5.887692e+02
1.910000e-06	6.749065e-10	-1.931501e-09	3.535904e+00	-5.729308e+02
1.920000e-06	7.675694e-10	-1.877199e-09	4.021247e+00	-5.567269e+02
1.930000e-06	8.602003e-10	-1.821341e-09	4.506489e+00	-5.400755e+02
1.940000e-06	9.527756e-10	-1.763721e-09	4.991405e+00	-5.229063e+02
1.950000e-06	1.045286e-09	-1.704389e-09	5.475926e+00	-5.052150e+02
1.960000e-06	1.137707e-09	-1.643556e-09	5.959972e+00	-4.870669e+02
1.970000e-06	1.230008e-09	-1.581342e-09	6.443368e+00	-4.684860e+02
1.980000e-06	1.322200e-09	-1.517627e-09	6.926123e+00	-4.494434e+02
1.990000e-06	1.414278e-09	-1.451966e-09	7.408260e+00	-4.298301e+02
2.000000e-06	1.506235e-09	-1.384082e-09	7.889759e+00	-4.095531e+02
2.010000e-06	1.598077e-09	-1.313996e-09	8.370614e+00	-3.886042e+02
2.020000e-06	1.689810e-09	-1.241634e-09	8.850833e+00	-3.669769e+02
2.030000e-06	1.781439e-09	-1.166797e-09	9.330536e+00	-3.446069e+02
2.040000e-06	1.872943e-09	-1.089187e-09	9.809615e+00	-3.213972e+02
2.050000e-06	1.964314e-09	-1.008491e-09	1.028799e+01	-2.972725e+02
2.060000e-06	2.055522e-09	-9.246226e-10	1.076549e+01	-2.722013e+02
2.070000e-06	2.146536e-09	-8.379493e-10	1.124195e+01	-2.462765e+02
2.080000e-06	2.237356e-09	-7.487552e-10	1.171741e+01	-2.195788e+02
2.090000e-06	2.327974e-09	-6.566589e-10	1.219186e+01	-1.920010e+02
2.100000e-06	2.418405e-09	-5.611864e-10	1.266536e+01	-1.634272e+02
2.110000e-06	2.508623e-09	-4.626798e-10	1.313772e+01	-1.339664e+02
2.120000e-06	2.598608e-09	-3.617256e-10	1.360884e+01	-1.037833e+02
2.130000e-06	2.688388e-09	-2.584921e-10	1.407890e+01	-7.291837e+01
2.140000e-06	2.777962e-09	-1.530858e-10	1.454790e+01	-4.140584e+01
2.150000e-06	2.867339e-09	-4.523410e-11	1.501587e+01	-9.169832e+00
2.160000e-06	2.956557e-09	6.502995e-11	1.548301e+01	2.379370e+01
2.170000e-06	3.045626e-09	1.768428e-10	1.594938e+01	5.722502e+01
2.180000e-06	3.134503e-09	2.895311e-10	1.641478e+01	9.090258e+01
2.190000e-06	3.223152e-09	4.028148e-10	1.687901e+01	1.247216e+02
2.200000e-06	3.311544e-09	5.163281e-10	1.734182e+01	1.585640e+02
2.210000e-06	3.399646e-09	6.295768e-10	1.780309e+01	1.923001e+02
2.220000e-06	3.487452e-09	7.421096e-10	1.826283e+01	2.258109e+02
2.230000e-06	3.574952e-09	8.536783e-10	1.872101e+01	2.590319e+02
2.240000e-06	3.662160e-09	9.642076e-10	1.917772e+01	2.919357e+02
2.250000e-06	3.749089e-09	1.073174e-09	1.963299e+01	3.243528e+02
2.260000e-06	3.835765e-09	1.179973e-09	2.008695e+01	3.561040e+02
2.270000e-06	3.922211e-09	1.284402e-09	2.053970e+01	3.871341e+02
2.280000e-06	4.008405e-09	1.386327e-09	2.099110e+01	4.174062e+02
2.290000e-06	4.094342e-09	1.486165e-09	2.144117e+01	4.470286e+02
2.300000e-06	4.180021e-09	1.584093e-09	2.188991e+01	4.760601e+02
2.310000e-06	4.265442e-09	1.679419e-09	2.233724e+01	5.043309e+02
2.320000e-06	4.350608e-09	1.771890e-09	2.278325e+01	5.317696e+02
2.330000e-06	4.435507e-09	1.862067e-09	2.322792e+01	5.585148e+02
2.340000e-06	4.520132e-09	1.950181e-09	2.367112e+01	5.846196e+02
2.350000e-06	4.604483e-09	2.035836e-09	2.411285e+01	6.099719e+02
2.360000e-06	4.688538e-09	2.118467e-09	2.455307e+01	6.344150e+02
2.370000e-06	4.772263e-09	2.197895e-09	2.499159e+01	6.579087e+02
2.380000e-06	4.855644e-09	2.274660e-09	2.542824e+01	6.806213e+02
2.390000e-06	4.938673e-09	2.349373e-09	2.586300e+01	7.027318e+02
2.400000e-06	5.021356e-09	2.422136e-09	2.629598e+01	7.242729e+02
2.410000e-06	5.103713e-09	2.492563e-09	2.672728e+01	7.451155e+02
2.420000e-06	5.185763e-09	2.560492e-09	2.715700e+01	7.652098e+02
2.430000e-06	5.267519e-09	2.626254e-09	2.758515e+01	7.846655e+02
2.440000e-06	5.348936e-09	2.690199e-09	2.801151e+01	8.035706e+02
2.450000e-06	5.429972e-09	2.752570e-09	2.843582e+01	8.219973e+02
2.460000e-06	5.510612e-09	2.813347e-09	2.885800e+01	8.399407e+02
2.470000e-06	5.590823e-09	2.872389e-09	2.927793e+01	8.573449e+02
2.480000e-06	5.670597e-09	2.929640e-09	2.969553e+01	8.742113e+02
2.490000e-06	5.749914e-09	2.984827e-09	3.011082e+01	8.904933e+02
2.500000e-06	5.828795e-09	3.037588e-09	3.052385e+01	9.060959e+02
2.510000e-06	5.907255e-09	3.087958e-09	3.093462e+01	9.210108e+02
2.520000e-06	5.985234e-09	3.136436e-09	3.134288e+01	9.353597e+02
2.530000e-06	6.062691e-09	3.183965e-09	3.174843e+01	9.493987e+02
2.540000e-06	6.139695e-09	3.231090e-09	3.215164e+01	9.632887e+02
2.550000e-06	6.216288e-09	3.277519e-09	3.255266e+01	9.769670e+02
2.560000e-06	6.292447e-09	3.322712e-09	3.295136e+01	9.902836e+02
2.570000e-06	6.368110e-09	3.366015e-09	3.334749e+01	1.003056e+03
2.580000e-06	6.443202e-09	3.407312e-09	3.374060e+01	1.015243e+03
2.590000e-06	6.517730e-09	3.447332e-09	3.413070e+01	1.027047e+03
2.600000e-06	6.591711e-09	3.486463e-09	3.451795e+01	1.038587e+03
2.610000e-06	6.665159e-09	3.524169e-09	3.490242e+01	1.049716e+03
2.620000e-06	6.738085e-09	3.560642e-09	3.528411e+01	1.060480e+03
2.630000e-06	6.810458e-09	3.596685e-09	3.566295e+01	1.071096e+03
2.640000e-06	6.882253e-09	3.631759e-09	3.603891e+01	1.081433e+03
2.650000e-06	6.953510e-09	3.666008e-09	3.641211e+01	1.091524e+03
2.660000e-06	7.024278e-09	3.699969e-09	3.678271e+01	1.101528e+03
2.670000e-06	7.094586e-09	3.732535e-09	3.715083e+01	1.111144e+03
2.680000e-06	7.164416e-09	3.763608e-09	3.751642e+01	1.120322e+03
2.690000e-06	7.233737e-09	3.794100e-09	3.787935e+01	1.129315e+03
2.700000e-06	7.302587e-09	3.824172e-09	3.823983e+01	1.138169e+03
2.710000e-06	7.371009e-09	3.853332e-09	3.859810e+01	1.146753e+03
2.720000e-06	7.438985e-09	3.881603e-09	3.895408e+01	1.155065e+03
2.730000e-06	7.506453e-09	3.909402e-09	3.930740e+01	1.163221e+03
2.740000e-06	7.573358e-09	3.936911e-09	3.965770e+01	1.171283e+03
2.750000e-06	7.639655e-09	3.963723e-09	4.000472e+01	1.179152e+03
2.760000e-06	7.705330e-09	3.988803e-09	4.034844e+01	1.186551e+03
2.770000e-06	7.770371e-09	4.012170e-09	4.068888e+01	1.193455e+03
2.780000e-06	7.834770e-09	4.034465e-09	4.102606e+01	1.200024e+03
2.790000e-06	7.898572e-09	4.056188e-09	4.136015e+01	1.206410e+03
2.800000e-06	7.961829e-09	4.078111e-09	4.169137e+01	1.212853e+03
2.810000e-06	8.024575e-09	4.100759e-09	4.201996e+01	1.219512e+03
2.820000e-06	8.086837e-09	4.123480e-09	4.234597e+01	1.226198e+03
2.830000e-06	8.148592e-09	4.145171e-09	4.266931e+01	1.232569e+03
2.840000e-06	8.209816e-09	4.165620e-09	4.298993e+01	1.238566e+03
2.850000e-06	8.270548e-09	4.185015e-09	4.330799e+01	1.244267e+03
2.860000e-06	8.330818e-09	4.203634e-09	4.362363e+01	1.249744e+03
2.870000e-06	8.390594e-09	4.221997e-09	4.393664e+01	1.255139e+03
2.880000e-06	8.449770e-09	4.240097e-09	4.424644e+01	1.260465e+03
2.890000e-06	8.508238e-09	4.258081e-09	4.455246e+01	1.265769e+03
